polling station,,,,,,,,,,,,,,,Total of valid votes,No. of rejected votes,NOTA,Total,No. of tendered votes
,Jadeja Kandhalbhai Saramanbhai,Radadiya Vithalbhai Hansrajbhai,Sadiya Vrajlal Pababhai,Irfanshah Habibshah Suhravardi,Mansukh Sundarji Dhokai,Aghera Dhirajlal Bhurabhai,Unadakat Prakash Vallabhdas,Khunti Bharatbhai Maldebhai,Khokhani Lalitaben Mansukhbhai,Joshi Harish Liladhar,Tukadiya G.R.,Patel Butani Rajeshbhai Maganbhai,Rathod Chandulal Mohanbhai,Vakil Vinzuda Ranjit Naranbhai,,,,,
1,33,436,42,2,0,0,0,0,0,2,1,0,0,1,517,0,4,521,0
2,30,813,16,1,2,0,1,2,1,0,2,2,1,6,877,0,13,890,0
3,36,646,3,5,7,1,1,4,2,2,3,3,3,9,725,0,5,730,0
4,29,256,21,1,1,0,1,0,0,0,1,2,3,2,317,0,0,317,0
5,14,284,3,3,1,1,0,0,1,0,1,0,0,5,313,0,5,318,0
6,75,507,11,2,14,2,2,1,2,0,3,3,1,3,626,0,6,632,0
7,36,417,22,5,5,1,0,2,1,0,2,1,3,3,498,0,8,506,0
8,48,208,6,0,5,2,0,1,0,0,0,1,1,1,273,0,5,278,0
9,40,369,2,0,4,1,0,0,0,0,0,0,1,6,423,0,4,427,0
10,73,446,12,5,3,0,0,0,0,0,0,0,0,1,540,0,7,547,0
11,34,539,8,5,2,0,2,0,1,0,0,1,2,5,599,0,7,606,0
12,13,244,11,5,0,0,0,0,1,0,2,1,0,4,281,0,0,281,0
13,5,644,0,1,2,0,0,0,0,0,0,0,0,0,652,0,1,653,0
14,177,191,4,3,3,0,1,2,1,1,1,1,2,1,388,0,5,393,0
15,14,576,3,0,0,1,0,1,0,0,0,0,1,5,601,0,3,604,0
16,47,320,4,0,5,1,0,0,0,0,1,0,0,1,379,0,2,381,0
17,36,386,6,3,3,0,2,0,0,0,0,2,0,7,445,0,9,454,0
18,64,850,11,1,4,0,0,0,0,1,1,3,3,5,943,0,5,948,0
19,8,349,0,0,1,0,0,0,0,0,0,1,0,0,359,0,1,360,0
20,25,408,4,0,3,0,1,0,0,0,0,0,3,6,450,0,3,453,0
21,36,387,25,2,7,0,1,0,0,0,0,4,0,3,465,0,13,478,0
22,33,436,6,4,7,1,0,1,0,0,0,0,1,2,491,0,3,494,0
23,37,399,4,2,6,1,0,0,1,2,0,1,0,0,453,0,1,454,0
24,129,263,9,5,1,2,0,1,4,1,1,4,0,3,423,0,3,426,0
25,1,339,1,0,0,0,0,0,0,0,1,0,0,2,344,0,0,344,0
26,52,514,7,4,8,1,1,0,3,1,1,1,7,7,607,0,5,612,0
27,133,588,40,8,18,3,3,2,1,2,1,4,2,11,816,0,8,824,0
28,32,457,7,3,4,0,0,1,3,0,2,3,2,4,518,0,8,526,0
29,60,320,3,3,1,0,2,2,1,0,1,1,1,4,399,0,6,405,0
30,105,257,16,2,6,4,1,1,4,3,1,9,5,2,416,0,4,420,0
31,61,206,4,2,0,0,1,3,1,0,1,2,1,3,285,0,5,290,0
32,40,635,5,1,7,0,0,0,1,1,0,0,3,4,697,0,9,706,0
33,58,295,7,1,7,0,0,0,0,1,0,2,1,9,381,0,5,386,0
34,111,333,5,2,7,2,1,1,0,1,1,1,4,5,474,0,9,483,0
35,36,651,17,3,2,0,0,2,0,2,1,2,3,7,726,0,1,727,0
36,39,123,2,0,0,1,0,1,1,0,1,0,2,6,176,0,4,180,0
37,19,278,10,1,0,0,0,0,0,1,1,0,1,1,312,0,4,316,0
38,22,260,5,0,1,2,2,0,1,1,1,2,8,9,314,0,9,323,0
39,117,325,27,5,9,1,1,1,2,0,1,0,0,5,494,0,17,511,0
40,63,456,5,5,4,1,0,3,0,1,2,2,1,8,551,0,11,562,0
41,61,272,4,0,1,0,0,1,0,0,1,0,2,1,343,0,3,346,0
42,253,166,19,5,5,0,1,1,0,0,1,6,1,1,459,0,10,469,0
43,28,144,7,5,2,0,1,0,1,1,2,2,2,3,198,0,8,206,0
44,81,411,26,2,8,1,1,1,0,0,2,2,1,5,541,0,3,544,0
45,52,457,5,2,2,3,1,1,0,2,0,1,3,6,535,0,6,541,0
46,107,478,7,0,7,0,1,0,0,0,0,2,0,1,603,0,11,614,0
47,95,504,5,1,4,0,0,1,2,2,0,0,1,2,617,0,6,623,0
48,24,555,6,1,7,0,2,2,1,2,2,0,1,6,609,0,4,613,0
49,101,260,46,3,5,0,0,1,2,1,0,0,1,1,421,0,5,426,0
50,33,569,5,0,4,1,0,0,1,0,0,0,1,4,618,0,4,622,0
51,151,361,10,2,0,1,0,0,1,0,0,1,0,1,528,0,12,540,0
52,77,322,2,1,4,1,1,1,12,0,0,1,2,5,429,0,6,435,0
53,142,315,5,6,12,4,1,2,10,1,1,0,3,1,503,0,2,505,0
54,64,323,4,2,5,0,0,0,7,0,2,0,1,2,410,0,2,412,0
55,68,282,4,2,5,1,1,1,0,0,4,1,2,2,373,0,5,378,0
56,65,391,3,0,3,0,0,0,9,1,2,1,3,2,480,0,3,483,0
57,45,519,6,2,13,1,0,0,1,0,2,2,3,3,597,0,10,607,0
58,103,419,10,2,11,1,0,2,1,1,1,7,6,8,572,0,19,591,0
59,75,345,6,12,11,0,3,1,4,0,3,3,2,3,468,0,11,479,0
60,37,293,4,3,6,0,2,1,2,0,0,0,1,2,351,0,8,359,0
61,17,205,1,0,3,0,0,0,0,0,0,2,0,0,228,0,10,238,0
62,27,276,3,0,5,0,0,1,0,0,0,0,0,0,312,0,8,320,0
63,64,386,3,1,16,0,2,1,0,0,0,1,3,2,479,0,25,504,0
64,32,433,3,1,7,0,1,0,1,0,1,1,2,0,482,0,4,486,0
65,50,382,1,1,11,1,0,2,2,2,1,3,3,3,462,0,12,474,0
66,25,135,1,1,6,1,0,0,0,0,2,0,0,2,173,0,4,177,0
67,50,486,3,3,3,0,0,2,0,0,1,1,2,2,553,0,10,563,0
68,40,591,2,0,13,0,1,0,0,1,0,1,1,6,656,0,11,667,0
69,68,457,5,1,7,0,2,0,1,0,1,1,1,1,545,0,15,560,0
70,47,441,2,4,10,0,0,0,0,1,0,1,1,2,509,0,24,533,0
71,46,561,2,3,9,0,1,1,1,0,1,0,1,4,630,0,22,652,0
72,73,321,8,3,29,0,2,1,0,1,1,1,3,2,445,0,15,460,0
73,50,486,2,0,23,0,1,0,1,0,0,0,1,0,564,0,10,574,0
74,47,676,1,2,22,2,2,0,0,2,1,2,1,1,759,0,51,810,0
75,53,574,5,1,25,0,2,1,0,2,0,0,1,0,664,0,28,692,0
76,65,653,2,0,14,0,0,0,0,1,0,2,0,1,738,0,26,764,0
77,106,603,3,3,17,1,1,1,0,0,2,1,1,3,742,0,21,763,0
78,207,215,1,3,12,2,0,1,0,1,0,1,2,1,446,0,9,455,0
79,144,71,1,4,2,1,0,0,0,0,0,0,0,1,224,0,13,237,0
80,29,498,1,0,5,0,0,1,0,0,0,1,0,1,536,0,12,548,0
81,16,435,4,0,3,0,0,0,0,0,0,0,1,0,459,0,7,466,0
82,25,596,2,1,7,0,0,0,0,0,0,0,0,0,631,0,9,640,0
83,178,124,2,2,12,1,1,0,0,0,0,0,1,1,322,0,6,328,0
84,67,507,3,2,10,0,1,0,0,0,2,1,0,0,593,0,19,612,0
85,39,362,1,2,14,0,0,0,0,0,0,2,1,0,421,0,10,431,0
86,126,61,1,2,8,1,0,1,0,1,1,0,0,0,202,0,3,205,0
87,200,158,1,5,10,1,0,1,1,0,0,0,0,0,377,0,2,379,0
88,27,487,5,1,12,0,1,0,0,1,0,3,0,1,538,0,13,551,0
89,149,94,3,4,11,0,1,1,1,1,1,0,3,2,271,0,4,275,0
90,154,344,3,2,9,3,0,1,1,1,1,1,2,1,523,0,10,533,0
91,124,345,2,0,4,1,0,1,0,0,0,0,0,2,479,0,8,487,0
92,128,249,1,3,8,1,0,2,0,1,1,0,4,0,398,0,6,404,0
93,33,314,1,0,3,0,1,0,0,0,0,0,0,1,353,0,12,365,0
94,35,667,10,0,18,1,0,1,0,0,0,0,2,2,736,0,6,742,0
95,27,517,5,1,11,2,0,0,0,0,0,1,1,0,565,0,6,571,0
96,65,556,0,1,9,0,0,1,1,1,0,1,0,4,639,0,14,653,0
97,16,342,1,0,2,0,0,1,0,0,0,0,0,0,362,0,4,366,0
98,20,431,0,0,3,0,0,0,0,0,0,0,0,0,454,0,3,457,0
99,27,552,3,2,7,0,1,0,1,1,0,0,1,1,596,0,4,600,0
100,35,584,3,4,7,1,0,1,2,0,1,3,3,9,653,0,16,669,0
101,90,415,7,8,5,1,1,1,2,1,2,1,3,5,542,0,12,554,0
102,51,371,10,3,6,0,1,3,3,3,2,0,5,8,466,0,16,482,0
103,160,254,9,6,5,0,1,0,2,1,0,4,3,4,449,0,12,461,0
104,53,315,6,1,5,1,0,0,3,0,1,0,2,2,389,0,7,396,0
105,103,295,6,3,8,3,1,4,5,1,2,5,1,5,442,0,7,449,0
106,42,496,1,0,10,1,2,2,1,0,1,2,2,2,562,0,14,576,0
107,22,300,1,0,13,0,0,0,0,0,1,1,1,1,340,0,4,344,0
108,41,389,3,0,9,0,1,0,1,0,0,2,0,2,448,0,12,460,0
109,43,628,2,1,16,0,2,0,1,0,2,1,1,1,698,0,13,711,0
110,39,625,2,0,8,0,0,0,0,0,0,0,1,1,676,0,18,694,0
111,29,327,0,0,3,0,0,0,0,0,0,0,0,0,359,0,1,360,0
112,29,658,2,2,11,0,1,0,0,0,1,1,0,2,707,0,12,719,0
113,45,656,13,0,6,1,2,0,0,0,0,0,1,4,728,0,9,737,0
114,14,423,2,0,2,0,0,0,0,1,0,0,2,2,446,0,1,447,0
115,18,472,2,1,8,0,0,0,0,0,0,0,1,0,502,0,5,507,0
116,19,519,3,1,5,0,1,0,1,0,0,0,2,3,554,0,14,568,0
117,50,538,2,2,16,1,0,3,0,0,0,1,0,0,613,0,8,621,0
118,87,483,0,2,11,1,0,2,1,0,1,0,0,1,589,0,13,602,0
119,220,213,1,3,9,0,0,0,0,0,1,0,0,3,450,0,3,453,0
120,37,394,4,2,11,2,1,2,0,0,0,1,1,1,456,0,14,470,0
121,35,146,3,0,4,0,1,0,0,0,0,0,0,0,189,0,10,199,0
122,53,682,7,2,7,0,1,0,0,1,1,1,2,5,762,0,7,769,0
123,39,94,0,0,5,2,0,0,0,0,0,0,1,0,141,0,7,148,0
124,40,116,1,0,4,0,0,0,0,1,0,0,0,1,163,0,11,174,0
125,69,485,6,3,8,1,1,0,0,0,1,2,0,10,586,0,10,596,0
126,68,457,6,3,7,2,1,1,0,1,0,0,1,3,550,0,6,556,0
127,243,248,3,4,17,0,0,1,2,0,1,3,2,5,529,0,17,546,0
128,237,157,11,1,9,1,2,3,3,0,1,2,2,1,430,0,11,441,0
129,216,208,4,4,14,3,1,3,8,3,0,3,2,3,472,0,11,483,0
130,174,315,12,2,9,0,1,0,0,3,4,4,5,7,536,0,12,548,0
131,110,441,12,3,6,3,1,2,7,1,3,1,1,9,600,0,19,619,0
132,133,270,7,2,2,0,0,0,1,0,1,2,7,2,427,0,9,436,0
133,307,127,24,0,9,1,0,2,2,0,1,2,2,4,481,0,20,501,0
134,232,121,4,3,12,0,1,0,1,2,1,1,1,4,383,0,10,393,0
135,143,71,3,6,4,0,1,2,0,1,0,0,1,0,232,0,3,235,0
136,34,390,5,1,5,2,0,1,6,0,1,1,0,2,448,0,5,453,0
137,57,450,12,0,6,0,0,0,6,1,5,3,0,7,547,0,6,553,0
138,142,334,8,2,2,0,0,3,0,0,0,3,1,3,498,0,12,510,0
139,30,154,2,2,5,0,0,3,1,2,0,1,1,1,202,0,3,205,0
140,77,168,13,3,4,2,1,2,0,2,2,1,0,2,277,0,8,285,0
141,71,445,2,2,2,0,0,1,34,2,0,0,1,2,562,0,17,579,0
142,121,353,9,4,16,1,0,6,10,2,0,3,4,1,530,0,12,542,0
143,161,154,10,2,8,1,2,3,6,0,2,1,1,0,351,0,9,360,0
144,180,268,5,6,6,0,0,2,2,0,1,2,2,6,480,0,6,486,0
145,44,445,3,1,5,0,0,0,4,0,2,4,4,2,514,0,10,524,0
146,46,453,6,3,2,0,0,1,0,1,2,0,2,2,518,0,3,521,0
147,31,530,9,2,6,0,1,1,1,1,3,1,0,4,590,0,5,595,0
148,33,504,2,3,3,0,0,1,0,1,1,9,0,1,558,0,9,567,0
149,28,569,2,0,11,1,0,0,1,1,1,2,1,2,619,0,5,624,0
150,195,242,19,1,1,3,2,1,0,0,1,2,2,2,471,0,9,480,0
151,35,540,5,2,12,0,1,0,0,0,0,3,1,1,600,0,8,608,0
152,40,333,2,0,2,0,2,0,0,1,0,1,1,1,383,0,5,388,0
153,54,312,4,0,4,1,1,1,1,1,0,1,0,2,382,0,3,385,0
154,51,509,33,3,8,1,0,2,1,0,0,3,2,4,617,0,8,625,0
155,124,408,8,4,10,0,1,1,1,0,0,3,3,4,567,0,16,583,0
156,86,548,10,3,5,2,1,1,1,1,0,2,1,4,665,0,12,677,0
157,60,624,5,0,11,0,0,1,1,0,0,1,1,3,707,0,3,710,0
158,120,349,13,2,2,6,1,1,0,0,1,2,2,3,502,0,17,519,0
159,57,548,1,0,4,0,1,0,0,2,0,0,0,2,615,0,6,621,0
160,56,399,4,2,5,2,2,0,0,0,0,2,4,2,478,0,8,486,0
161,38,349,4,0,4,0,0,2,2,0,0,0,2,0,401,0,7,408,0
162,126,254,4,2,2,3,2,0,2,1,4,5,4,3,412,0,9,421,0
163,53,370,3,2,9,0,1,0,0,0,1,1,0,1,441,0,3,444,0
164,106,330,9,0,3,0,0,0,1,0,1,4,2,1,457,0,5,462,0
165,160,316,4,2,8,2,0,1,0,0,4,2,1,3,503,0,17,520,0
166,28,411,1,0,5,2,0,0,2,1,0,0,2,3,455,0,4,459,0
167,31,450,7,1,8,2,1,1,0,0,2,2,0,3,508,0,9,517,0
168,28,395,6,0,0,1,3,1,1,2,1,3,2,6,449,0,7,456,0
169,54,267,9,4,3,0,4,2,4,1,3,1,3,2,357,0,4,361,0
170,76,348,2,1,1,1,0,1,1,2,2,1,0,1,437,0,8,445,0
171,127,323,5,2,1,0,0,2,3,0,1,3,1,1,469,0,8,477,0
172,60,299,14,4,2,2,1,0,3,2,4,2,4,3,400,0,8,408,0
173,59,393,2,2,13,1,2,0,0,0,1,1,1,2,477,0,6,483,0
174,132,327,3,3,2,2,2,1,1,1,1,4,1,6,486,0,6,492,0
175,110,388,10,7,3,0,1,1,0,0,0,5,2,8,535,0,15,550,0
176,43,280,5,6,34,1,3,1,1,1,1,4,9,8,397,0,12,409,0
177,16,386,5,3,7,1,0,2,1,1,0,3,4,4,433,0,5,438,0
178,66,361,5,0,2,1,1,0,0,0,0,1,1,5,443,0,10,453,0
179,139,252,11,2,6,1,0,2,0,0,0,0,2,1,416,0,10,426,0
180,36,359,2,2,11,0,0,0,0,1,3,2,2,3,421,0,10,431,0
181,36,249,2,2,4,0,1,0,0,0,0,1,3,4,302,0,3,305,0
182,62,628,4,3,12,0,1,0,0,1,0,2,2,2,717,0,8,725,0
183,54,344,6,1,5,1,1,0,1,0,1,1,2,0,417,0,4,421,0
184,96,335,2,3,3,0,3,1,0,0,1,1,0,2,447,0,6,453,0
185,137,202,6,5,12,1,2,1,2,0,1,0,0,6,375,0,11,386,0
186,112,274,15,5,0,0,0,1,0,1,1,0,3,6,418,0,17,435,0
187,73,488,15,6,8,1,2,4,2,0,4,4,1,6,614,0,7,621,0
188,56,323,2,6,7,0,1,0,1,0,1,1,4,6,408,0,3,411,0
189,17,382,1,1,0,0,0,0,0,0,1,1,0,3,406,0,5,411,0
190,31,157,7,3,6,0,1,2,1,1,1,3,1,0,214,0,5,219,0
191,22,433,2,3,12,0,0,0,1,0,1,1,0,4,479,0,10,489,0
192,110,325,8,0,1,0,3,3,3,0,0,5,0,1,459,0,12,471,0
193,19,305,6,7,2,1,0,0,1,0,1,0,2,1,345,0,7,352,0
194,24,341,3,1,6,0,0,0,0,0,1,2,1,2,381,0,5,386,0
195,57,373,10,3,7,1,0,1,1,1,1,4,0,0,459,0,7,466,0
196,22,502,11,5,9,0,0,1,0,0,3,5,1,2,561,0,11,572,0
197,179,347,16,4,13,1,2,4,3,2,3,6,8,2,590,0,21,611,0
198,173,213,21,6,13,1,2,3,3,5,4,5,2,3,454,0,15,469,0
199,126,138,14,3,1,0,0,0,4,0,0,1,1,3,291,0,10,301,0
200,72,278,2,0,1,2,1,0,1,1,1,3,2,0,364,0,6,370,0
201,78,324,8,3,4,1,0,1,1,1,1,1,1,5,429,0,7,436,0
202,38,194,7,0,2,0,0,0,0,0,1,0,1,2,245,0,4,249,0
203,36,432,3,2,1,0,1,0,0,0,0,1,3,4,483,0,4,487,0
204,20,597,6,2,9,1,0,0,0,0,1,0,0,1,637,0,1,638,0
205,76,493,5,1,13,1,1,0,1,0,1,2,1,4,599,0,9,608,0
206,166,423,2,4,13,1,1,1,0,0,0,3,2,2,618,0,16,634,0
207,62,228,4,3,1,0,0,2,33,2,1,1,0,1,338,0,3,341,0
208,106,231,5,2,4,0,0,2,96,0,1,4,1,4,456,0,16,472,0
209,34,234,4,1,1,1,0,2,37,1,3,0,1,2,321,0,6,327,0
210,40,322,2,8,6,1,0,1,10,1,2,5,1,4,403,0,13,416,0
211,64,410,4,3,5,1,1,2,13,0,3,2,1,3,512,0,9,521,0
212,194,179,6,6,10,1,2,1,12,1,1,6,3,4,426,0,22,448,0
213,31,363,5,0,4,2,0,0,0,0,0,1,4,1,411,0,3,414,0
214,9,238,5,0,9,0,1,0,1,0,1,0,0,1,265,0,7,272,0
215,49,447,9,1,8,0,1,0,1,0,0,0,1,6,523,0,7,530,0
216,38,348,3,3,2,1,1,0,1,0,0,1,1,4,403,0,7,410,0
217,27,398,2,1,7,0,0,0,0,0,1,1,1,1,439,0,5,444,0
218,25,389,1,2,6,0,1,0,0,0,0,0,0,2,426,0,5,431,0
219,199,403,7,3,9,1,0,3,0,1,0,0,6,6,638,0,5,643,0
220,104,337,5,2,7,2,2,0,0,2,1,0,0,3,465,0,9,474,0
221,136,245,4,1,3,1,2,0,0,0,1,4,2,5,404,0,9,413,0
