polling station,,,,,,,,,,,,,,,Valid Votes,Rejected Votes,of NOTA Options,Tendered Votes,total
,Jadeja Kandhalbhai Saramanbhai,Radadiya Vithalbhai Hansrajbhai,Sadiya Vrajlal Pababhai,Irfanshah Habibshah Suhravardi,Mansukh Sundarji Dhokai,Aghera Dhirajlal Bhurabhai,Unadakat Prakash Vallabhadas,Khunti Bharatbhai Maldebhai,Khokhani Lalitaben Mansukhbhai,Joshi Harish Liladhar,Tukadia G.R.,Patel Butani Rajeshbhai Maganbhai,Rathod Chandulal Mohanbhai,Vakil Vinzuda Ranjit Naranbhai,,,,,
1,330,183,5,1,2,1,0,1,0,2,5,4,3,9,546,0,32,0,578
2,354,74,6,5,3,2,4,3,1,3,3,4,2,2,466,0,25,0,491
3,247,50,2,0,2,1,0,0,2,0,0,3,1,0,308,0,8,0,316
4,158,182,1,3,1,0,0,3,0,0,1,5,3,4,361,0,7,0,368
5,205,122,0,1,2,3,5,2,0,0,0,2,2,5,349,0,11,0,360
6,294,116,6,4,3,0,2,5,0,3,1,0,1,1,436,0,13,0,449
7,102,177,3,0,2,0,1,4,1,2,0,0,1,3,296,0,2,0,298
8,137,222,5,1,2,0,1,3,1,1,0,3,1,5,382,0,4,0,386
9,221,331,10,1,1,2,2,1,0,0,3,2,4,4,582,0,18,0,600
10,160,284,5,1,0,2,0,1,2,2,2,3,1,3,466,0,7,0,473
11,111,154,4,2,2,2,2,1,0,1,1,0,1,1,282,0,5,0,287
12,209,90,2,2,1,1,0,0,1,0,0,0,2,1,309,0,8,0,317
13,190,212,3,2,4,1,2,2,1,2,2,1,1,3,426,0,3,0,429
14,177,230,5,3,1,0,0,0,1,0,3,1,4,2,427,0,5,0,432
15,225,89,2,4,1,1,0,0,0,1,2,0,1,1,327,0,10,0,337
16,153,109,3,0,1,1,0,4,1,1,1,0,3,4,281,0,7,0,288
17,75,263,3,0,0,0,1,2,0,0,2,1,1,2,350,0,7,0,357
18,55,242,7,1,1,2,1,1,2,1,3,4,3,2,325,0,4,0,329
19,140,149,5,2,1,1,1,2,0,1,1,2,1,4,310,0,7,0,317
20,102,162,4,1,0,1,3,4,0,0,2,1,2,4,286,0,3,0,289
21,83,392,2,2,2,1,1,2,3,2,2,1,2,4,499,0,6,0,505
22,405,31,0,0,3,1,2,0,0,0,0,0,0,0,442,0,11,0,453
23,272,168,0,3,3,2,0,1,1,2,5,1,0,0,458,0,6,0,464
24,45,351,2,0,2,0,1,2,4,1,5,0,5,3,421,0,8,0,429
25,124,101,18,6,3,0,2,6,0,0,1,0,2,3,266,0,7,0,273
26,195,227,2,1,0,1,3,3,0,0,0,0,3,1,436,0,18,0,454
27,216,103,1,2,2,1,1,8,0,1,1,0,5,4,345,0,10,0,355
28,180,117,2,0,3,0,2,0,1,0,2,4,4,6,321,0,7,0,328
29,218,43,24,5,1,1,3,2,0,1,2,1,1,2,304,0,10,0,314
30,345,138,2,3,5,1,5,2,5,2,2,5,2,5,522,0,12,0,534
31,188,151,3,1,0,1,3,1,0,1,1,3,3,0,356,0,14,0,370
32,75,130,3,0,4,0,1,0,1,0,0,1,0,2,217,0,3,0,220
33,140,170,2,3,1,1,0,1,1,0,0,3,2,1,325,0,3,0,328
34,90,204,2,0,3,0,0,1,1,2,0,2,1,2,308,0,5,0,313
35,170,251,9,0,0,2,2,3,1,1,3,2,2,7,453,0,7,0,460
36,140,195,9,1,2,4,2,2,1,2,0,4,1,3,366,0,6,0,372
37,161,111,9,5,1,1,0,2,0,1,2,2,1,0,296,0,2,0,298
38,67,260,2,0,1,0,0,0,0,0,1,2,1,4,338,0,3,0,341
39,353,25,2,2,2,1,1,1,0,1,1,4,0,2,395,0,16,0,411
40,204,203,2,2,3,0,0,3,0,1,0,1,0,1,420,0,8,0,428
41,279,107,7,1,1,1,1,1,1,1,0,12,1,3,416,0,14,0,430
42,252,77,3,0,2,2,1,2,2,0,0,2,2,6,351,0,18,0,369
43,223,70,3,2,0,1,0,2,0,1,2,0,3,1,308,0,7,0,315
44,185,229,3,1,6,3,14,6,2,0,3,4,9,4,469,0,20,0,489
45,151,325,2,1,1,2,1,1,1,0,3,2,1,1,492,0,7,0,499
46,126,188,0,1,3,0,0,4,1,0,2,9,0,3,337,0,4,0,341
47,224,267,5,3,1,5,5,7,2,1,1,7,5,6,539,0,10,0,549
48,164,217,3,0,4,0,4,1,0,1,1,1,1,4,401,0,6,0,407
49,198,182,2,4,1,2,3,1,2,2,0,9,4,6,416,0,12,0,428
50,185,211,4,3,2,0,2,7,0,2,3,3,1,0,423,0,5,0,428
51,200,292,3,2,2,1,1,6,0,2,0,4,5,2,520,0,8,0,528
52,365,150,4,1,1,1,2,3,1,0,2,4,2,6,542,0,22,0,564
53,435,75,4,1,13,2,1,5,1,0,1,4,4,1,547,0,11,0,558
54,98,128,1,0,0,0,3,0,0,0,1,2,0,1,234,0,4,0,238
55,55,257,4,0,0,0,1,1,2,1,2,0,4,0,327,0,4,0,331
56,155,347,7,3,2,0,0,2,1,0,0,2,3,6,528,0,4,0,532
57,324,175,6,3,4,1,1,6,2,0,3,2,8,5,540,0,13,0,553
58,334,131,15,2,4,1,1,2,1,0,0,0,1,4,496,0,11,0,507
59,77,359,4,4,2,1,1,0,0,1,1,2,1,7,460,0,5,0,465
60,121,401,1,3,3,0,0,1,1,1,1,3,4,2,542,0,10,0,552
61,80,223,2,0,0,0,1,1,0,0,0,0,1,1,309,0,0,0,309
62,54,136,0,1,0,1,0,1,1,0,1,0,0,0,195,0,1,0,196
63,161,69,2,2,2,1,0,0,1,0,0,0,0,0,238,0,2,0,240
64,76,191,4,3,0,0,1,1,1,0,1,0,1,2,281,0,3,0,284
65,227,182,2,5,2,2,1,4,0,0,0,3,1,4,433,0,16,0,449
66,355,140,3,6,2,2,1,1,1,2,3,5,4,4,529,0,8,0,537
67,342,252,10,3,4,3,2,8,0,0,0,4,4,4,636,0,9,0,645
68,98,289,3,1,3,1,1,0,1,1,1,1,3,6,409,0,15,0,424
69,76,363,2,0,3,0,0,2,0,0,1,1,1,3,452,0,10,0,462
70,230,223,9,1,1,0,1,3,2,1,0,5,0,5,481,0,29,0,510
71,70,155,4,1,2,0,0,0,0,1,0,1,1,1,236,0,3,0,239
72,120,248,4,2,3,1,0,1,1,1,1,3,0,1,386,0,2,0,388
73,35,139,1,0,0,0,0,0,0,0,0,0,0,0,175,0,5,0,180
74,75,140,2,1,0,2,2,1,0,1,1,3,0,1,229,0,4,0,233
75,66,236,0,0,3,1,0,0,0,0,0,2,0,0,308,0,3,0,311
76,124,155,2,0,2,0,1,2,2,1,0,2,0,2,293,0,3,0,296
77,117,123,2,0,1,2,0,2,0,0,0,1,1,0,249,0,5,0,254
78,105,178,0,2,0,1,1,0,0,0,0,1,0,0,288,0,3,0,291
79,171,197,2,3,0,1,1,1,0,1,1,2,1,2,383,0,4,0,387
80,175,165,4,1,1,1,1,0,0,0,0,2,3,4,357,0,8,0,365
81,174,306,9,1,11,1,0,0,0,1,0,4,2,7,516,0,17,0,533
82,77,277,7,1,3,2,1,0,0,1,4,0,1,8,382,0,15,0,397
83,127,104,10,3,1,1,1,2,1,1,1,6,3,0,261,0,7,0,268
84,23,217,1,0,1,0,2,0,0,0,2,2,3,2,253,0,10,0,263
85,62,138,3,2,0,0,0,0,0,1,0,0,0,0,206,0,1,0,207
86,215,162,7,1,0,0,0,3,0,0,0,2,3,0,393,0,9,0,402
87,117,163,5,2,1,1,3,2,0,1,2,3,2,2,304,0,13,0,317
88,113,266,6,1,2,0,2,3,1,1,3,0,2,4,404,0,8,0,412
89,152,420,12,3,1,3,3,2,5,1,5,4,7,12,630,0,14,0,644
90,159,234,4,1,3,0,2,0,1,1,0,0,3,6,414,0,17,0,431
91,128,374,14,5,5,2,2,4,3,2,4,5,2,14,564,0,17,0,581
92,273,313,5,4,5,4,2,2,1,1,1,2,1,6,620,0,16,0,636
93,177,201,12,4,1,4,3,1,1,3,0,3,3,4,417,0,9,0,426
94,183,148,14,3,2,3,10,1,1,1,1,1,5,8,381,0,17,0,398
95,113,238,4,0,0,0,0,2,0,0,1,0,1,6,365,0,10,0,375
96,120,217,0,1,4,3,0,4,3,0,4,1,3,5,365,0,7,0,372
97,94,186,3,0,2,0,2,2,0,0,2,1,1,6,299,0,12,0,311
98,331,87,6,7,1,0,1,2,0,0,1,1,0,0,437,0,5,0,442
99,138,157,8,3,13,0,1,1,0,1,3,3,4,2,334,0,21,0,355
100,254,253,5,3,2,1,2,1,0,1,0,1,4,1,528,0,7,0,535
101,401,160,13,1,9,3,1,5,1,3,0,4,4,1,606,0,12,0,618
102,227,182,4,6,5,2,4,2,2,0,1,2,5,3,445,0,5,0,450
103,236,200,9,2,3,0,1,3,1,0,0,1,3,2,461,0,13,0,474
104,176,164,6,1,0,1,0,0,1,0,2,2,4,1,358,0,6,0,364
105,47,386,0,0,1,0,0,1,0,0,1,1,1,4,442,0,2,0,444
106,57,152,1,3,5,0,0,1,0,0,0,0,0,0,219,0,3,0,222
107,119,320,2,5,5,3,0,0,1,0,0,3,1,3,462,0,8,0,470
108,104,361,8,6,2,0,1,2,0,1,4,2,3,9,503,0,6,0,509
109,16,406,1,1,7,0,0,1,1,0,0,0,1,2,436,0,0,0,436
110,268,205,31,4,1,4,0,1,2,2,1,2,6,2,529,0,14,0,543
111,171,102,2,0,0,1,0,0,3,0,1,1,0,1,282,0,4,0,286
112,201,242,4,6,4,2,2,2,1,0,0,1,1,1,467,0,5,0,472
113,245,128,0,1,1,1,1,6,0,0,4,3,0,2,392,0,9,0,401
114,146,207,2,1,2,0,2,1,2,1,0,1,1,2,368,0,6,0,374
115,277,221,5,1,2,2,3,4,0,1,1,1,2,6,526,0,12,0,538
116,182,231,23,0,2,0,3,3,1,0,2,0,1,2,450,0,4,0,454
117,117,328,7,2,2,1,2,4,2,1,4,3,9,7,489,0,13,0,502
118,342,320,5,3,1,1,2,2,1,1,1,1,0,8,688,0,31,0,719
119,264,343,6,4,3,1,2,4,1,1,2,2,3,5,641,0,12,0,653
120,193,313,5,3,2,0,3,1,1,0,1,3,2,4,531,0,10,0,541
121,268,201,10,3,3,2,2,3,0,2,2,0,7,5,508,0,21,0,529
122,244,169,2,4,4,0,1,2,3,0,0,1,2,3,435,0,9,0,444
123,318,181,3,3,4,1,3,5,0,0,0,1,4,2,525,0,25,0,550
124,180,229,5,4,3,0,1,2,1,0,0,1,0,6,432,0,7,0,439
125,142,185,4,1,5,1,0,1,1,0,2,3,3,3,351,0,13,0,364
126,47,156,0,1,5,0,0,2,0,1,0,0,0,0,212,0,9,0,221
127,41,221,1,0,0,1,2,0,1,0,1,0,0,1,269,0,4,0,273
128,192,389,7,2,3,2,1,1,1,0,1,2,2,7,610,0,13,0,623
129,135,311,4,2,1,0,1,2,0,0,1,0,0,0,457,0,13,0,470
130,150,489,12,11,9,2,7,0,2,2,0,0,5,3,692,0,6,0,698
131,167,218,7,4,6,0,1,1,0,0,1,1,1,1,408,0,11,0,419
132,165,66,19,6,6,1,1,4,0,2,2,1,3,1,277,0,3,0,280
133,224,288,5,5,5,1,1,7,4,1,2,3,2,8,556,0,13,0,569
134,115,281,8,2,0,1,0,1,3,0,3,1,1,1,417,0,4,0,421
135,126,143,3,1,3,3,2,0,0,0,0,1,1,3,286,0,4,0,290
136,171,294,6,5,0,3,1,1,2,0,1,1,3,0,488,0,4,0,492
137,244,263,9,6,1,4,0,1,1,1,0,0,4,5,539,0,1,0,540
138,129,138,8,4,4,2,1,1,0,3,0,2,2,3,297,0,6,0,303
139,143,175,5,1,3,2,0,0,0,0,2,0,1,1,333,0,8,0,341
140,29,449,3,2,3,1,0,0,1,0,2,1,2,2,495,0,6,0,501
141,118,105,4,0,4,1,1,0,0,0,0,0,1,1,235,0,8,0,243
142,159,436,8,1,3,2,2,0,0,1,2,3,3,1,621,0,5,0,626
143,223,274,3,4,6,1,1,6,2,3,3,0,4,5,535,0,33,0,568
144,31,288,6,1,7,0,0,0,0,2,0,0,1,1,337,0,2,0,339
145,71,581,4,0,7,1,0,1,0,2,0,0,0,4,671,0,13,0,684
146,21,612,2,2,13,1,1,0,0,1,0,1,2,2,658,0,16,0,674
147,25,598,2,0,18,2,0,0,0,0,1,0,0,2,648,0,15,0,663
148,29,563,2,1,5,2,0,0,1,0,1,1,0,4,609,0,9,0,618
149,37,689,1,1,6,1,0,0,1,0,2,3,2,3,746,0,4,0,750
150,28,621,2,0,7,0,0,0,0,0,0,1,0,1,660,0,6,1,666
151,31,705,2,0,14,0,1,0,1,1,0,2,1,1,759,0,18,0,777
152,30,457,1,1,9,0,1,0,0,0,0,1,0,1,501,0,6,0,507
153,46,620,3,3,9,11,0,3,1,0,1,1,2,1,701,0,15,0,716
154,43,537,0,0,10,1,0,1,0,0,0,0,3,3,598,0,5,0,603
155,103,354,1,5,16,1,0,1,1,1,1,0,0,1,485,0,24,0,509
156,48,378,2,1,9,1,0,0,0,0,1,0,0,0,440,0,11,0,451
157,38,187,1,1,1,0,0,1,0,1,0,0,0,0,230,0,11,0,241
158,114,436,8,1,7,0,0,0,0,0,0,3,1,0,570,0,23,0,593
159,25,167,1,1,1,0,1,0,0,1,0,0,0,0,197,0,7,0,204
160,341,315,5,1,4,3,1,2,1,3,1,3,2,2,684,0,8,0,692
161,198,177,1,3,11,2,0,7,0,0,0,3,0,0,402,0,18,0,420
162,214,235,2,5,8,0,0,1,4,0,0,1,0,0,470,0,5,0,475
163,83,317,0,0,16,1,0,1,0,0,0,0,0,2,420,0,8,0,428
164,40,684,3,0,18,0,0,0,0,1,1,2,2,0,751,0,19,0,770
165,78,498,0,1,10,2,0,1,0,1,1,0,0,2,594,0,11,0,605
166,250,250,8,4,11,2,2,2,0,1,0,2,3,3,538,0,15,0,553
167,101,570,4,2,11,1,1,1,1,1,2,1,1,2,699,0,7,0,706
168,271,279,10,7,15,1,2,5,4,0,4,2,1,4,605,0,20,0,625
169,114,366,2,1,2,1,2,1,0,1,2,0,2,0,494,0,6,0,500
170,175,295,4,1,17,2,0,1,1,0,1,2,3,8,510,0,18,0,528
171,219,247,2,4,5,1,0,1,0,1,0,1,1,4,486,0,18,0,504
172,68,257,1,4,1,0,0,1,1,0,1,2,1,7,344,0,8,0,352
173,124,377,4,1,2,0,1,0,0,1,0,0,1,7,518,0,9,0,527
174,85,219,3,0,9,0,0,0,0,0,0,1,0,0,317,0,12,0,329
175,221,395,11,3,10,1,4,4,0,1,1,2,1,4,658,0,24,0,682
176,198,146,5,0,6,1,0,3,1,0,1,0,2,4,367,0,17,0,384
177,168,174,5,0,5,0,0,1,0,0,2,0,2,14,371,0,29,0,400
178,272,227,11,7,11,0,2,1,3,0,0,2,2,4,542,0,23,0,565
179,229,213,15,1,23,0,0,2,0,0,0,2,0,1,486,0,24,0,510
180,314,259,17,3,5,1,2,5,1,1,1,1,2,6,618,0,27,0,645
181,326,119,10,7,9,3,1,9,1,1,1,2,1,0,490,0,24,0,514
182,386,183,8,1,10,1,2,2,1,0,2,2,2,3,603,0,18,0,621
183,30,250,1,2,14,1,0,1,0,1,1,1,1,0,303,0,3,0,306
184,105,405,4,2,6,1,0,1,0,0,1,3,0,2,530,0,16,0,546
185,26,477,0,0,8,0,1,0,1,0,0,0,0,1,514,0,19,0,533
186,23,390,2,2,14,0,0,1,0,0,1,0,1,0,434,0,5,0,439
187,4,393,4,0,2,0,0,0,1,0,1,0,0,1,406,0,3,0,409
188,43,516,2,2,4,1,1,1,1,0,0,0,0,1,572,0,3,0,575
189,25,302,0,0,5,1,0,0,1,0,0,0,0,0,334,0,6,0,340
190,48,447,3,2,7,0,0,0,1,0,0,0,1,2,511,0,9,0,520
191,192,262,3,1,3,3,3,3,4,0,1,5,4,3,487,0,18,0,505
192,221,196,2,7,6,0,2,1,1,1,1,2,0,3,443,0,19,0,462
193,24,511,2,3,7,1,0,0,1,0,2,0,0,4,555,0,3,0,558
194,197,246,21,1,3,0,0,1,1,0,1,1,2,2,476,0,13,0,489
195,460,191,5,8,10,1,0,3,2,4,5,3,3,3,698,0,30,0,728
196,45,379,1,2,2,3,0,2,4,0,0,0,3,1,442,0,5,0,447
197,156,298,10,4,1,1,2,3,3,0,3,1,3,3,488,0,3,0,491
198,138,238,4,2,3,0,2,1,0,1,2,3,1,1,396,0,5,0,401
199,89,367,7,4,3,0,0,0,1,0,2,0,2,6,481,0,8,0,489
200,180,415,1,1,6,1,4,2,1,0,2,2,2,1,618,0,7,0,625
201,140,408,4,2,13,4,0,0,1,1,1,1,2,1,578,0,8,0,586
202,161,329,4,5,33,0,0,2,0,0,0,0,6,3,543,0,14,0,557
203,194,290,9,5,12,1,0,1,2,0,1,3,2,3,523,0,9,0,532
204,91,439,3,3,8,1,0,3,1,1,1,3,3,10,567,0,11,0,578
205,20,408,0,1,5,0,0,0,0,0,2,3,0,2,441,0,4,0,445
206,265,168,20,2,1,0,0,7,0,0,0,1,2,3,469,0,10,0,479
207,40,226,1,1,1,0,0,0,0,0,2,3,0,2,276,0,1,0,277
208,79,281,3,0,2,0,0,1,1,0,0,0,2,5,374,0,3,0,377
209,122,394,2,3,7,3,2,1,1,0,1,3,0,4,543,0,16,0,559
210,149,569,8,1,30,0,1,1,0,1,4,0,2,0,766,0,13,0,779
211,49,541,5,4,1,3,1,0,1,0,0,2,1,5,613,0,8,0,621
212,108,473,5,1,2,1,6,2,0,1,2,1,1,3,606,0,6,0,612
213,52,454,0,1,7,0,0,0,1,0,1,0,0,2,518,0,5,0,523
214,46,191,0,1,3,0,1,0,1,0,0,1,1,1,246,0,2,0,248
215,215,328,9,6,10,4,1,2,4,0,0,1,1,4,585,0,12,0,597
216,52,186,2,2,1,0,0,0,0,0,1,1,2,3,250,0,5,0,255
217,131,267,3,1,4,1,0,0,1,2,1,0,0,1,412,0,8,0,420
218,77,688,2,1,2,1,0,1,1,1,0,1,0,1,776,0,8,0,784
219,82,272,2,2,2,0,0,1,0,0,1,0,1,2,365,0,2,0,367
220,120,280,8,7,4,1,0,1,0,1,0,2,3,2,429,0,8,0,437
221,93,316,1,0,4,0,1,0,1,0,1,3,1,3,424,0,4,0,428
222,145,198,8,3,1,1,0,1,1,1,1,0,2,2,364,0,4,0,368
223,247,231,2,5,7,1,4,1,1,2,2,2,0,3,508,0,12,0,520
224,129,360,1,2,5,0,3,1,0,1,0,1,3,7,513,0,24,0,537
225,118,262,5,4,2,1,0,2,0,0,0,1,4,6,405,0,11,0,416
226,186,307,6,1,0,1,0,1,0,1,2,0,3,2,510,0,12,0,522
227,70,492,4,2,1,1,0,0,0,0,1,2,0,4,577,0,1,0,578
228,134,262,1,4,2,1,1,0,2,1,3,1,2,2,416,0,5,0,421
229,99,94,0,1,3,1,0,0,1,0,0,0,1,0,200,0,7,0,207
230,88,372,2,3,5,1,1,0,0,0,2,1,1,3,479,0,13,0,492
231,130,411,4,2,4,0,1,1,0,0,3,0,1,1,558,0,10,0,568
232,153,279,12,10,5,2,1,1,3,1,0,2,1,3,473,0,18,0,491
233,75,335,6,4,3,1,2,0,1,0,1,3,1,0,432,0,4,0,436
234,28,303,3,1,0,2,0,0,1,0,1,2,1,2,344,0,3,0,347
235,50,423,10,3,6,0,1,0,0,2,2,1,2,0,500,0,8,0,508
