Serial No. of Polling Station,No. of valid votes cast in favour of,,,,,,,,,,,,,,Total of valid votes,No. of rejected votes,NOTA,Total,No. of tendered votes
,Jadeja Kandhalbhai Saramanbhai,Radadiya Vithalbhai Hansrajbhai,Sadiya Vrajlal Pababhai,Irfanshah Habibshah Suhravardi,Mansukh Sundarji Dhokai,Aghera Dhirajlal Bhurabhai,Unadakat Prakash Vallabhadas,Khunti Bharatbhai Maldebhai,Khokhani Lalitaben Mansukhbhai,Joshi Harish Liladhar,Tukadia G.R.,Patel Butani Rajeshbhai Maganbhai,Rathod Chandulal Mohanbhai,Vakil Vinzuda Ranjit Naranbhai,,,,,
1,184,311,5,5,1,1,0,3,1,0,0,3,3,7,524,0,10,534,0
2,383,83,2,5,2,5,2,3,1,0,0,2,1,2,491,0,7,498,0
3,188,187,4,4,3,1,7,2,0,0,0,3,2,4,405,0,10,415,0
4,368,171,77,2,1,2,2,4,1,3,5,2,5,3,646,0,18,664,0
5,115,181,8,0,2,0,1,1,0,0,3,0,1,1,313,0,4,317,0
6,159,203,5,3,0,0,1,6,0,0,4,3,1,1,386,0,2,388,0
7,190,135,3,4,0,1,1,1,2,1,4,2,4,3,351,0,14,365,0
8,198,133,4,4,3,0,1,4,2,1,1,4,3,2,360,0,6,366,0
9,180,188,4,5,1,1,1,2,1,2,0,3,1,7,396,0,5,401,0
10,108,89,4,0,5,1,1,0,0,0,0,2,3,1,214,0,3,217,0
11,176,373,3,3,1,2,2,1,1,0,0,0,2,5,569,0,3,572,0
12,95,289,5,2,4,0,2,1,1,1,1,1,6,8,416,0,9,425,0
13,386,119,1,3,1,0,0,2,0,0,0,1,0,3,516,0,11,527,0
14,328,104,1,4,0,3,1,1,0,0,1,0,0,4,447,0,11,458,0
15,241,154,4,3,2,1,0,2,0,0,1,4,2,7,421,0,11,432,0
16,220,153,5,2,0,1,0,1,1,0,2,0,3,3,391,0,14,405,0
17,171,95,4,1,1,0,1,1,0,0,4,0,0,3,281,0,4,285,0
18,168,189,23,2,0,1,0,4,1,0,1,3,3,4,399,0,2,401,0
19,161,132,4,0,4,1,2,0,0,0,1,4,0,3,312,0,8,320,0
20,24,482,2,0,0,0,0,1,0,1,1,0,0,4,515,0,7,522,0
21,149,136,46,3,1,2,1,2,1,0,0,1,0,3,345,0,4,349,0
22,127,189,1,1,2,1,2,1,1,0,0,0,0,2,327,0,8,335,0
23,33,140,4,0,0,3,2,2,1,4,3,4,2,5,203,0,4,207,0
24,69,221,2,1,0,1,0,0,1,0,0,3,3,8,309,0,10,319,0
25,141,200,2,1,2,0,0,2,0,0,1,2,0,2,353,0,11,364,0
26,233,44,8,2,0,1,0,2,0,0,1,7,1,2,301,0,5,306,0
27,122,218,0,1,0,0,0,2,0,1,1,1,0,0,346,0,7,353,0
28,52,477,12,3,2,3,2,0,3,1,6,10,4,14,589,0,24,613,0
29,369,92,1,2,0,1,0,2,0,0,0,3,0,0,470,0,11,481,0
30,422,113,2,1,5,1,2,1,0,1,2,3,0,3,556,0,18,574,0
31,230,50,5,1,1,3,0,4,1,1,0,5,3,3,307,0,9,316,0
32,292,90,3,4,1,0,2,3,0,1,1,2,3,3,405,0,13,418,0
33,162,104,24,0,5,1,0,1,0,1,3,2,1,1,305,0,5,310,0
34,173,143,21,2,2,0,1,1,1,0,0,2,2,2,350,0,0,350,0
35,76,318,4,0,0,1,0,1,3,1,4,3,3,6,420,0,9,429,0
36,133,286,5,5,1,1,1,2,0,0,2,0,1,3,440,0,7,447,0
37,189,216,22,2,0,1,0,0,1,0,0,2,2,0,435,0,8,443,0
38,271,173,25,2,3,1,2,3,1,0,1,5,6,2,495,0,9,504,0
39,239,183,2,6,0,0,1,5,2,2,3,4,5,4,456,0,3,459,0
40,210,194,0,4,3,1,3,0,1,0,1,1,1,3,422,0,4,426,0
41,153,94,4,1,0,0,1,3,0,1,0,1,2,1,261,0,7,268,0
42,90,221,2,0,4,1,0,1,0,3,1,0,2,1,326,0,7,333,0
43,112,410,6,4,7,2,1,4,0,1,0,5,3,4,559,0,17,576,0
44,116,308,4,3,2,2,4,0,0,1,2,1,0,2,445,0,18,463,0
45,379,88,100,9,6,3,1,6,0,2,1,10,3,3,611,0,13,624,0
46,357,187,7,6,13,10,10,10,6,2,4,8,9,5,634,0,20,654,0
47,88,213,4,0,1,1,1,3,2,2,1,3,3,3,325,0,8,333,0
48,53,195,1,1,3,1,1,2,2,1,1,3,3,5,272,0,11,283,0
49,71,298,7,3,4,1,1,2,0,0,1,6,1,1,396,0,8,404,0
50,85,250,2,0,6,0,0,0,0,1,3,1,1,2,351,0,4,355,0
51,112,174,2,1,2,0,2,3,1,0,0,4,0,1,302,0,5,307,0
52,252,231,7,10,5,2,3,3,2,3,3,4,1,8,534,0,7,541,0
53,103,146,3,2,1,2,1,1,2,1,2,2,1,2,269,0,5,274,0
54,132,198,5,1,3,1,2,2,0,0,3,1,1,4,353,0,6,359,0
55,80,83,6,11,2,3,2,0,0,2,1,2,0,1,193,0,4,197,0
56,33,120,10,4,1,5,1,1,2,1,1,5,3,9,196,0,19,215,0
57,77,313,7,3,1,1,1,1,0,0,1,1,1,1,408,0,2,410,0
58,32,160,13,1,0,0,1,0,1,1,1,1,1,3,215,0,14,229,0
59,121,42,223,4,1,3,1,1,2,1,1,1,1,2,404,0,5,409,0
60,136,272,3,3,2,1,2,3,1,0,3,1,4,4,435,0,9,444,0
61,73,119,0,1,2,0,0,1,0,1,0,1,0,0,198,0,4,202,0
62,94,169,3,7,2,0,1,1,1,1,0,2,3,3,287,0,8,295,0
63,82,196,120,1,0,1,0,1,1,0,1,0,5,1,409,0,4,413,0
64,129,161,69,6,2,1,1,0,0,0,2,1,2,3,377,0,5,382,0
65,169,263,13,1,3,0,0,2,0,0,0,0,1,0,452,0,1,453,0
66,100,239,4,2,2,0,0,0,1,0,3,3,1,6,361,0,6,367,0
67,80,246,36,2,0,1,0,2,1,0,1,1,0,7,377,0,13,390,0
68,186,224,11,3,0,4,1,0,0,0,2,2,0,9,442,0,28,470,0
69,90,188,4,1,14,4,0,0,0,0,0,1,0,0,302,0,5,307,0
70,69,304,2,1,1,1,2,1,0,0,2,2,6,3,394,0,8,402,0
71,73,284,6,7,6,1,0,0,1,0,1,3,4,3,389,0,3,392,0
72,281,118,4,2,0,1,2,1,3,1,0,2,2,2,419,0,6,425,0
73,51,109,4,2,2,1,1,0,2,1,1,2,2,2,180,0,6,186,0
74,178,217,46,3,1,2,1,1,1,1,5,7,2,10,475,0,20,495,0
75,86,486,2,0,15,0,0,0,0,0,0,1,1,0,591,0,24,615,0
76,55,285,0,1,6,0,0,0,1,0,0,1,0,0,349,0,16,365,0
77,53,251,3,0,6,1,1,0,0,1,0,0,0,4,320,0,15,335,0
78,176,290,5,2,2,1,0,0,0,0,0,2,2,0,480,0,5,485,0
79,151,237,22,1,4,2,3,1,1,2,2,2,3,2,433,0,7,440,0
80,31,240,6,0,0,0,0,0,1,0,2,3,4,11,298,0,5,303,0
81,21,199,3,0,0,0,1,1,0,0,3,0,0,1,229,0,7,236,0
82,87,302,9,3,1,2,0,0,1,0,1,1,2,4,413,0,8,421,0
83,98,98,106,6,2,0,1,1,0,0,1,6,1,0,320,0,2,322,0
84,144,107,65,1,3,0,3,2,0,1,1,1,2,2,332,0,5,337,0
85,155,184,59,4,0,0,4,3,0,1,0,5,1,2,418,0,9,427,0
86,44,96,0,1,0,0,3,0,1,0,0,1,1,3,150,0,2,152,0
87,162,551,6,2,7,0,1,3,0,0,0,1,1,2,736,0,17,753,0
88,303,307,4,1,4,3,2,2,0,2,0,1,2,5,636,0,11,647,0
89,310,287,4,9,4,2,0,3,3,1,1,3,4,2,633,0,18,651,0
90,71,653,3,2,12,1,1,0,0,0,0,0,2,3,748,0,8,756,0
91,302,240,0,6,5,0,1,3,0,0,0,0,1,4,562,0,13,575,0
92,314,148,0,1,3,2,0,0,0,1,0,0,0,0,469,0,9,478,0
93,154,127,7,4,3,0,1,1,1,0,0,2,1,2,303,0,7,310,0
94,188,337,6,4,2,0,1,5,0,2,0,2,2,10,559,0,22,581,0
95,284,169,1,1,4,0,0,2,0,1,0,1,1,3,467,0,12,479,0
96,301,182,2,6,4,2,1,1,1,0,0,2,2,2,506,0,6,512,0
97,167,288,2,1,9,2,1,1,0,0,0,0,0,1,472,0,14,486,0
98,543,70,84,5,0,1,0,2,0,0,1,3,4,4,717,0,38,755,0
99,404,159,4,2,0,1,2,1,0,0,0,0,1,1,575,0,23,598,0
100,319,273,8,5,5,3,8,2,1,0,1,2,0,6,633,0,16,649,0
101,341,203,60,7,7,2,4,3,1,1,4,1,1,3,638,0,9,647,0
102,50,433,5,4,1,0,0,0,2,1,4,2,3,5,510,0,13,523,0
103,295,104,0,4,1,1,1,0,0,0,0,1,1,0,408,0,8,416,0
104,138,345,8,6,2,3,0,0,0,2,1,5,1,3,514,0,13,527,0
105,72,216,4,3,2,0,1,0,2,2,1,2,3,4,312,0,9,321,0
106,141,206,3,1,1,0,3,1,2,0,0,1,0,1,360,0,10,370,0
107,151,311,20,8,2,3,2,1,4,2,1,2,5,8,520,0,16,536,0
108,66,444,5,0,5,3,2,2,0,0,0,2,1,0,530,0,5,535,0
109,241,169,4,1,2,1,3,4,2,2,2,2,4,3,440,0,11,451,0
110,42,300,28,2,1,0,0,0,0,0,1,32,1,3,410,0,4,414,0
111,60,308,20,1,2,0,0,2,1,0,0,38,5,2,439,0,4,443,0
112,127,324,35,1,0,2,1,1,0,1,2,3,1,6,504,0,7,511,0
113,89,524,12,2,2,0,2,4,0,1,1,3,7,5,652,0,12,664,0
114,109,234,64,2,1,4,0,2,2,2,2,2,3,1,428,0,6,434,0
115,85,248,2,1,1,1,1,3,0,0,1,0,0,0,343,0,2,345,0
116,70,265,29,1,1,0,1,0,0,0,2,2,4,4,379,0,3,382,0
117,23,338,2,0,1,0,0,1,1,0,3,1,2,5,377,0,11,388,0
118,125,334,38,3,4,1,1,2,1,0,2,4,3,2,520,0,6,526,0
119,47,340,1,0,0,1,2,2,1,0,1,1,0,1,397,0,1,398,0
120,354,181,3,4,2,1,0,2,1,0,3,4,3,2,560,0,10,570,0
121,223,279,61,1,2,0,4,1,1,1,2,2,2,6,585,0,6,591,0
122,88,310,5,2,3,2,0,0,1,1,1,0,2,5,420,0,9,429,0
123,18,191,1,0,1,0,0,0,0,0,1,1,0,0,213,0,2,215,0
124,220,267,3,5,9,2,1,1,1,1,0,2,4,1,517,0,17,534,0
125,208,123,5,5,0,0,1,3,1,0,0,1,0,4,351,0,6,357,0
126,265,279,13,8,6,0,2,4,1,2,5,10,12,5,612,0,20,632,0
127,117,317,13,0,7,1,2,0,0,0,5,7,2,6,477,0,12,489,0
128,64,144,2,3,0,0,1,0,0,0,1,0,2,2,219,0,1,220,0
129,145,91,2,1,2,0,0,1,0,0,0,0,0,1,243,0,5,248,0
130,196,66,4,2,0,1,2,1,0,0,0,0,1,0,273,0,5,278,0
131,403,90,20,2,0,5,2,5,1,1,1,7,2,2,541,0,6,547,0
132,49,214,2,2,0,2,1,0,0,0,2,4,4,6,286,0,5,291,0
133,143,237,62,5,2,2,2,1,1,0,0,2,3,2,462,0,7,469,0
134,119,284,14,3,0,1,2,2,1,1,1,5,3,1,437,0,4,441,0
135,209,38,1,3,1,0,0,1,1,0,0,0,2,4,260,0,17,277,0
136,164,75,0,1,0,0,1,1,0,1,0,0,1,3,247,0,0,247,0
137,86,238,20,3,1,2,1,0,2,2,2,1,0,1,359,0,7,366,0
138,185,293,7,1,4,1,3,1,0,1,0,0,1,2,499,0,1,500,0
139,219,181,5,0,2,1,2,0,2,0,2,3,13,2,432,0,6,438,0
140,79,331,5,0,4,1,0,1,0,0,1,1,1,1,425,0,9,434,0
141,90,353,5,1,3,2,1,2,1,1,0,3,0,0,462,0,5,467,0
142,207,58,12,1,1,0,3,1,1,1,2,1,6,2,296,0,9,305,0
143,35,179,8,2,1,7,3,2,0,0,7,9,3,8,264,0,18,282,0
144,4,89,3,1,0,0,0,3,1,1,0,0,2,4,108,0,4,112,0
145,104,460,14,4,1,2,1,1,2,1,0,4,7,4,605,0,7,612,0
146,171,326,29,5,1,3,0,0,1,0,2,3,5,4,550,0,17,567,0
147,60,172,15,1,1,2,2,0,0,0,0,2,0,3,258,0,2,260,0
148,162,286,9,2,2,2,2,0,0,0,0,1,2,1,469,0,4,473,0
149,258,220,10,2,1,2,4,4,3,0,3,2,5,2,516,0,5,521,0
150,101,205,2,2,1,1,1,1,0,1,0,2,3,3,323,0,9,332,0
151,73,172,25,1,1,0,1,0,0,0,0,1,1,1,276,0,2,278,0
152,63,295,3,0,1,1,1,2,1,1,1,1,1,3,374,0,4,378,0
153,217,127,1,2,1,0,2,4,0,1,2,4,0,6,367,0,15,382,0
154,140,346,4,3,4,0,1,1,0,0,0,2,2,4,507,0,6,513,0
155,149,126,2,2,0,0,1,1,0,0,0,6,0,1,288,0,7,295,0
156,122,284,10,3,6,2,3,1,3,1,3,1,3,4,446,0,7,453,0
157,177,370,8,4,4,2,4,5,7,2,1,4,1,4,593,0,6,599,0
158,232,96,7,3,2,2,2,1,0,0,0,3,0,1,349,0,4,353,0
159,72,132,8,2,0,1,0,1,0,1,2,2,3,0,224,0,3,227,0
160,73,174,4,3,4,1,1,1,0,3,2,2,3,2,273,0,7,280,0
161,198,158,6,0,3,0,0,2,1,1,1,0,2,2,374,0,8,382,0
162,137,274,7,2,1,5,2,1,1,2,6,4,12,19,473,0,11,484,0
163,315,152,2,3,2,1,0,4,0,0,0,0,7,8,494,0,11,505,0
164,222,383,5,2,1,0,3,0,0,0,0,0,18,3,637,0,7,644,0
165,362,147,4,5,2,2,3,1,1,0,3,1,44,2,577,0,12,589,0
166,369,94,95,4,2,3,2,2,1,3,2,2,4,5,588,0,13,601,0
167,288,372,2,4,4,0,2,0,0,1,0,1,2,1,677,0,7,684,0
168,426,210,1,6,3,0,1,1,2,0,0,2,22,4,678,0,14,692,0
169,141,379,0,1,3,1,0,1,0,0,2,1,1,1,531,0,5,536,0
170,425,210,1,3,0,2,1,2,2,1,0,2,0,4,653,0,17,670,0
171,430,141,8,1,1,0,0,1,0,1,0,1,0,6,590,0,18,608,0
172,213,266,12,4,2,3,2,1,1,0,3,0,1,6,514,0,12,526,0
173,47,158,2,1,19,0,1,3,0,2,0,0,3,0,236,0,4,240,0
174,139,258,27,4,1,3,3,1,1,2,2,4,4,6,455,0,16,471,0
175,188,308,5,0,2,1,1,3,0,1,3,5,2,1,520,0,16,536,0
176,283,215,27,1,1,1,1,1,3,0,0,1,1,2,537,0,8,545,0
177,142,170,7,1,3,0,1,0,2,1,0,0,1,0,328,0,7,335,0
178,91,108,5,4,1,1,2,0,0,0,0,0,2,5,219,0,11,230,0
179,102,352,6,1,2,0,1,0,0,0,0,2,4,7,477,0,10,487,0
180,56,295,4,1,3,0,1,0,0,0,2,2,4,2,370,0,8,378,0
181,178,185,37,3,6,3,0,1,2,1,1,2,5,3,427,0,9,436,0
182,102,123,11,5,4,2,2,2,0,1,0,3,2,2,259,0,9,268,0
183,127,208,13,2,2,2,0,2,1,2,2,6,2,2,371,0,5,376,0
184,311,90,10,7,0,2,1,2,0,1,1,2,3,7,437,0,15,452,0
185,247,264,9,5,1,2,3,2,1,1,1,2,3,3,544,0,13,557,0
186,44,147,1,1,0,1,1,0,1,1,0,1,1,2,201,0,8,209,0
187,83,95,1,1,0,0,0,1,0,0,0,1,0,2,184,0,1,185,0
188,90,272,6,2,0,0,0,0,1,2,3,3,2,3,384,0,3,387,0
189,314,209,1,2,1,1,1,0,1,0,2,2,3,6,543,0,11,554,0
190,192,95,10,4,2,0,2,1,0,0,0,1,0,4,311,0,6,317,0
191,415,195,55,3,0,2,1,3,3,1,1,0,3,6,688,0,16,704,0
192,110,175,3,0,3,4,2,2,0,1,2,2,1,8,313,0,10,323,0
193,216,101,23,3,4,1,2,3,1,1,0,3,2,3,363,0,7,370,0
194,189,153,10,1,1,0,0,2,1,0,0,1,2,1,361,0,5,366,0
195,59,50,1,2,0,0,1,2,1,0,1,0,0,1,118,0,2,120,0
196,258,46,1,1,1,1,0,2,0,0,1,1,1,0,313,0,2,315,0
197,254,121,6,1,2,2,1,1,1,0,0,2,2,3,396,0,6,402,0
198,373,141,14,7,4,0,3,5,0,0,1,9,3,4,564,0,11,575,0
199,332,83,4,2,2,2,3,1,0,0,0,4,3,2,438,0,16,454,0
200,135,91,1,1,1,0,1,1,0,1,1,0,1,10,244,0,14,258,0
201,248,63,2,1,0,0,1,2,2,0,2,0,0,0,321,0,10,331,0
202,232,103,13,1,2,2,0,4,0,1,2,3,4,2,369,0,11,380,0
203,131,287,5,2,3,1,0,2,1,2,2,2,1,2,441,0,11,452,0
204,225,160,8,3,2,1,3,1,1,0,1,7,3,1,416,0,7,423,0
205,125,158,2,1,1,1,0,3,1,1,0,5,1,1,300,0,0,300,0
206,270,39,6,0,2,2,0,0,0,0,0,0,0,0,319,0,15,334,0
