Polling Station,,,,,,,,,,,,,,,valid,Total of Reject ed Votes (Test Vote),Votes for NOTA Option,No of Tender ed Votes,total
,Jadeja Kandhalbh ai Saramanb hai,Radadiya Vithalbhai Hansrajbhai,Sadiya Vrajlal Pababhai,Irfanshah Habibshah Suhravardi,Mansukh Sundarji Dhokai,Aghera Dhirajlal Bhurabhai,Unadakat Prakash Vallabhada s,Khunti Bharatbhai Maldebhai,Khokhani Lalitaben Mansukhbhai,Joshi Harish Liladhar,Tukadia G.R.,Patel Butani Rajeshbhai Maganbhai,Rathod Chandulal Mohanbhai,Vakil Vinzuda Ranjit Naranbh ai,,,,,
1,128,116,6,2,0,0,2,0,0,0,0,1,1,2,258,0,5,0,263
2,132,175,1,1,0,1,4,0,0,0,1,0,0,1,316,0,3,0,319
3,275,226,4,8,18,2,3,3,2,0,1,0,6,7,555,0,28,0,583
4,86,146,3,0,0,2,2,0,0,1,3,0,1,2,246,0,5,0,251
5,187,92,10,2,9,3,5,0,0,0,1,0,2,3,314,0,15,0,329
6,156,168,5,3,8,1,2,0,0,1,0,1,2,3,350,0,11,0,361
7,206,87,4,2,8,0,3,2,0,0,1,1,3,2,319,0,5,0,324
8,84,134,5,1,3,1,1,2,0,0,1,0,4,2,238,0,2,0,240
9,93,107,7,1,1,1,1,2,0,1,4,1,1,2,222,0,3,0,225
10,88,165,4,2,1,1,2,1,0,0,0,0,1,7,272,0,3,0,275
11,159,200,11,4,12,3,1,1,2,1,2,2,3,7,408,0,10,0,418
12,81,128,2,2,4,1,3,2,0,1,0,4,2,5,235,0,3,0,238
13,85,145,6,3,3,0,1,0,1,0,1,1,0,2,248,0,5,0,253
14,211,96,0,3,1,1,2,0,0,0,0,1,2,3,320,0,8,0,328
15,93,147,1,1,5,2,1,1,2,0,3,2,1,1,260,0,6,0,266
16,106,167,4,0,6,1,2,0,1,0,0,1,2,3,293,0,5,0,298
17,74,243,3,0,1,0,0,0,1,0,1,0,1,1,325,0,2,0,327
18,243,199,3,3,0,1,1,3,0,0,0,1,2,0,456,0,6,0,462
19,97,266,5,2,4,0,1,2,0,0,0,1,0,1,379,0,13,0,392
20,60,171,7,6,6,2,0,1,3,1,0,0,0,0,257,0,8,0,265
21,24,368,4,3,1,1,1,1,0,1,0,0,1,0,405,0,3,0,408
22,124,356,22,0,5,0,0,2,0,0,2,2,1,3,517,0,11,0,528
23,116,331,26,3,27,1,4,0,0,0,0,1,0,1,510,0,5,0,515
24,282,309,8,1,10,3,6,1,3,2,2,8,2,7,644,0,10,0,654
25,132,142,10,3,6,1,3,2,0,1,1,0,3,2,306,0,6,0,312
26,148,174,7,2,3,0,2,2,1,0,0,0,3,1,343,0,6,0,349
27,200,122,5,1,3,0,2,0,1,0,0,1,1,2,338,0,12,0,350
28,147,317,5,1,4,3,0,0,2,0,0,2,3,6,490,0,16,0,506
29,115,177,3,0,0,2,0,3,2,0,1,2,7,0,312,0,4,0,316
30,205,372,4,2,1,1,1,0,1,0,1,0,0,2,590,0,6,0,596
31,189,397,9,1,4,2,2,1,0,1,1,0,1,1,609,0,7,0,616
32,126,279,4,0,3,1,2,2,0,0,0,0,1,4,422,0,3,0,425
33,83,266,3,3,4,2,1,1,0,0,2,0,2,0,367,0,7,0,374
34,35,354,1,0,0,0,0,0,0,0,0,2,0,2,394,0,5,0,399
35,38,287,1,1,4,1,2,0,0,0,0,1,1,2,338,0,2,0,340
36,223,239,9,2,2,1,2,2,2,0,1,5,5,7,500,0,16,0,516
37,68,123,1,1,2,0,1,0,0,0,1,1,1,1,200,0,3,0,203
38,61,163,1,1,4,1,0,0,0,0,2,1,0,2,236,0,7,0,243
39,154,402,7,4,6,1,2,1,0,2,2,1,8,12,602,0,12,0,614
40,171,305,10,4,10,0,4,2,0,0,3,2,3,4,518,0,15,0,533
41,132,202,5,0,6,0,0,0,0,1,0,0,1,1,348,0,4,0,352
42,144,203,1,0,3,2,0,0,0,0,0,0,0,2,355,0,13,0,368
43,172,363,4,2,11,0,0,0,0,0,0,2,2,1,557,0,5,0,562
44,269,332,17,2,8,2,4,1,1,1,0,1,12,9,659,0,20,0,679
45,188,408,10,4,12,0,2,0,0,1,0,1,5,8,639,0,20,0,659
46,125,379,5,3,13,2,2,2,0,0,0,1,4,4,540,0,14,0,554
47,115,254,3,1,4,1,2,1,0,0,2,2,0,2,387,0,7,0,394
48,109,166,15,2,6,1,1,2,1,0,1,0,0,3,307,0,4,0,311
49,315,226,7,3,14,1,6,1,0,1,1,3,2,2,582,0,9,0,591
50,32,557,3,2,1,2,1,0,1,1,0,3,0,2,605,0,2,0,607
51,164,229,5,4,5,1,1,0,2,0,0,0,1,2,414,0,18,0,432
52,82,321,13,2,4,1,3,2,1,1,2,2,1,3,438,0,11,0,449
53,49,479,3,2,6,1,1,1,0,1,2,3,2,4,554,0,9,0,563
54,151,91,4,2,2,3,2,0,0,0,0,3,1,4,263,0,7,0,270
55,136,512,2,3,6,0,0,0,0,0,0,1,3,2,665,0,13,0,678
56,218,167,6,4,10,0,1,1,1,0,3,3,2,9,425,0,15,0,440
57,282,145,17,4,2,2,1,3,0,0,0,3,4,5,468,0,20,0,488
58,41,290,1,4,1,1,0,0,0,0,0,0,0,0,338,0,3,0,341
59,161,249,5,3,28,1,1,2,0,1,3,0,0,4,458,0,12,0,470
60,301,272,16,1,9,2,2,2,1,0,1,1,2,1,611,0,22,0,633
61,167,125,0,2,4,1,1,0,0,0,0,1,1,0,302,0,5,0,307
62,119,369,8,2,9,1,0,0,0,0,1,0,2,3,514,0,7,0,521
63,136,496,8,2,16,2,0,1,2,1,3,0,1,6,674,0,13,0,687
64,47,384,6,1,1,1,0,0,0,0,0,1,0,2,443,0,7,0,450
65,67,470,2,4,11,1,0,2,0,0,0,0,1,3,561,0,5,0,566
66,61,536,2,1,7,2,0,1,0,1,0,0,0,2,613,0,12,0,625
67,28,576,1,0,10,0,1,0,0,1,1,0,0,1,619,0,14,0,633
68,200,333,11,2,16,0,3,1,0,0,1,0,0,0,567,0,8,0,575
69,47,488,2,3,11,0,1,0,0,1,1,0,1,0,555,0,14,0,569
70,181,46,4,3,3,2,0,0,1,2,0,2,2,5,251,0,9,0,260
71,126,311,4,1,7,1,0,0,0,1,0,0,0,0,451,0,15,0,466
72,168,75,4,5,3,4,0,2,2,0,2,3,4,1,273,0,4,0,277
73,27,491,2,0,3,0,0,0,0,0,1,2,1,0,527,0,5,0,532
74,21,449,3,0,7,1,0,0,1,1,0,0,0,0,483,0,11,0,494
75,38,254,2,2,10,0,0,0,0,0,0,0,0,0,306,0,5,0,311
76,138,173,3,2,0,1,3,5,0,0,3,0,4,2,334,0,14,0,348
77,77,247,3,1,5,1,0,0,0,0,1,0,1,3,339,0,2,0,341
78,62,425,1,0,2,0,0,1,1,0,0,1,1,1,495,0,6,0,501
79,44,310,2,5,0,0,1,1,0,0,0,0,0,3,366,0,3,0,369
80,208,275,8,0,3,1,1,1,0,1,2,2,15,4,521,0,5,0,526
81,90,218,2,5,3,0,2,1,1,1,0,2,1,5,331,0,9,0,340
82,228,249,7,3,2,0,0,0,1,1,0,1,2,3,497,0,15,0,512
83,48,295,3,0,5,2,1,0,1,0,0,0,0,0,355,0,0,0,355
84,142,154,9,2,3,1,1,0,1,2,0,2,0,0,317,0,8,0,325
85,278,67,1,0,1,0,1,2,0,0,0,0,0,3,353,0,6,0,359
86,181,157,3,2,4,2,0,1,1,0,0,0,0,3,354,0,2,0,356
87,110,237,3,3,9,1,2,1,0,1,0,1,1,5,374,0,13,0,387
88,189,233,2,0,3,1,2,1,0,1,2,1,0,5,440,0,13,0,453
89,91,274,16,2,3,4,3,2,1,0,4,2,1,3,406,0,5,0,411
90,59,536,8,2,6,0,2,0,1,1,3,0,2,4,624,0,3,0,627
91,154,263,6,3,1,2,0,1,0,2,0,1,2,1,436,0,9,0,445
92,161,193,12,5,1,2,4,1,0,0,0,2,1,5,387,0,8,0,395
93,88,226,5,1,3,1,4,0,1,0,1,1,0,1,332,0,5,0,337
94,88,144,1,0,2,1,1,0,1,0,0,1,0,2,241,0,4,0,245
95,110,224,2,1,2,1,1,0,0,1,0,0,1,1,344,0,6,0,350
96,37,554,2,2,0,1,0,0,0,0,2,0,1,3,602,0,8,0,610
97,169,380,4,2,5,4,3,0,1,2,0,1,3,3,577,0,7,0,584
98,118,354,3,0,3,2,0,1,0,0,0,0,1,0,482,0,4,0,486
99,373,129,3,3,1,0,1,3,0,0,1,1,1,2,518,0,9,0,527
100,340,65,15,2,0,1,1,4,0,0,0,0,0,4,432,0,13,0,445
101,109,350,7,1,2,0,5,1,2,0,2,1,1,1,482,0,4,0,486
102,135,229,3,1,0,0,3,2,1,1,2,0,2,3,382,0,11,0,393
103,154,105,9,2,2,0,0,3,1,0,1,1,2,3,283,0,10,0,293
104,168,267,3,3,4,4,2,2,1,0,2,1,1,3,461,0,13,0,474
105,163,104,8,2,0,1,2,4,0,1,1,1,0,2,289,0,6,0,295
106,96,112,3,3,2,0,3,0,0,0,2,1,2,0,224,0,8,0,232
107,133,394,2,9,4,2,0,3,1,1,3,1,2,1,556,0,4,0,560
108,167,354,24,2,7,1,3,2,0,1,2,3,4,4,574,0,20,0,594
109,19,493,8,1,2,1,4,1,2,2,1,1,2,4,541,0,9,0,550
110,56,619,9,3,0,0,1,2,2,1,2,0,1,5,701,0,10,0,711
111,291,203,7,4,1,1,1,1,0,0,1,2,2,1,515,0,15,0,530
112,267,366,9,1,1,1,1,0,1,0,2,0,1,1,651,0,7,0,658
113,45,322,0,1,1,0,1,0,0,0,0,0,0,1,371,0,3,0,374
114,162,275,6,1,1,2,1,1,1,0,0,1,4,4,459,0,14,0,473
115,39,320,2,3,1,0,0,0,1,0,4,0,2,3,375,0,0,0,375
116,188,215,5,7,4,1,3,4,1,0,0,2,1,4,435,0,15,0,450
117,116,341,2,2,1,0,0,0,0,0,0,1,1,4,468,0,8,0,476
118,95,332,1,3,2,0,0,0,1,0,1,3,1,0,439,0,9,0,448
119,190,278,2,3,5,5,0,2,0,1,1,2,2,2,493,0,8,0,501
120,69,308,16,3,2,1,4,2,0,0,0,1,2,0,408,0,5,0,413
121,63,381,4,2,3,1,2,1,0,1,1,1,6,1,467,0,11,0,478
122,77,421,5,2,3,0,2,0,0,0,3,1,3,3,520,0,7,0,527
123,36,426,2,1,2,1,0,0,0,1,1,0,0,2,472,0,2,0,474
124,186,46,44,3,4,1,1,2,1,1,0,3,5,2,299,0,4,0,303
125,73,184,1,1,0,0,0,0,0,0,0,0,0,2,261,0,2,0,263
126,87,197,5,1,3,1,0,1,5,0,1,0,4,4,309,0,11,0,320
127,407,106,5,11,0,2,0,2,2,1,0,2,3,1,542,0,7,0,549
128,473,126,7,6,1,3,2,2,2,0,2,1,2,0,627,0,12,0,639
129,505,139,6,6,3,5,10,5,1,0,3,3,3,1,690,0,10,0,700
130,556,150,1,5,1,1,2,3,1,0,0,2,1,1,724,0,18,0,742
131,35,116,0,0,1,0,0,0,1,2,0,1,1,0,157,0,6,0,163
132,255,275,7,4,1,2,5,2,1,0,3,2,2,3,562,0,21,0,583
133,142,404,6,2,2,0,3,0,0,0,2,5,7,4,577,0,15,0,592
134,154,140,3,2,2,3,2,2,0,2,3,0,3,0,316,0,6,0,322
135,179,164,6,2,3,3,2,0,0,0,1,1,3,1,365,0,4,0,369
136,116,324,9,8,3,2,0,1,0,2,3,3,2,4,477,0,4,0,481
137,351,279,4,6,6,1,3,3,1,0,0,0,0,1,655,0,12,0,667
138,214,277,2,1,6,0,1,0,0,0,0,2,0,0,503,0,4,0,507
139,383,198,28,8,5,1,1,3,0,0,1,2,2,3,635,0,24,0,659
140,227,57,41,2,2,0,0,3,1,0,0,1,0,1,335,0,6,0,341
141,123,99,12,13,0,1,1,1,2,4,2,2,3,6,269,0,15,0,284
142,359,256,1,5,6,3,1,2,1,0,2,2,2,2,642,0,15,0,657
143,142,348,1,2,4,3,0,1,0,0,0,0,1,0,502,0,4,0,506
144,41,558,3,0,0,0,0,1,1,0,1,1,1,3,610,0,2,0,612
145,465,170,2,13,2,3,1,2,0,0,0,1,2,3,664,0,16,0,680
146,126,208,3,4,1,2,0,1,0,0,0,0,0,0,345,0,4,0,349
147,240,239,1,1,1,0,0,1,3,0,0,0,1,0,487,0,12,0,499
148,126,468,3,3,0,0,0,1,2,0,0,1,0,1,605,0,7,0,612
149,110,227,5,0,2,0,2,0,0,1,1,0,0,4,352,0,4,0,356
150,103,254,5,0,4,1,0,1,0,0,0,0,0,2,370,0,4,0,374
151,167,160,5,3,2,2,0,0,0,0,1,2,3,2,347,0,11,0,358
152,187,193,8,2,0,1,1,7,3,1,1,0,6,3,413,0,7,0,420
153,154,202,4,5,0,1,1,1,1,1,1,3,3,9,386,0,13,0,399
154,122,299,8,2,0,2,0,2,0,0,0,1,2,6,444,0,6,0,450
155,30,220,0,1,2,0,1,0,1,1,2,0,0,2,260,0,6,0,266
156,167,401,2,1,7,1,1,0,2,0,0,0,5,8,595,0,10,0,605
157,22,503,3,2,28,1,0,0,3,1,1,0,0,5,569,0,12,0,581
158,372,277,8,2,16,5,1,6,1,5,3,4,1,3,704,0,10,0,714
159,226,230,15,6,2,1,2,2,2,0,1,2,2,1,492,0,13,0,505
160,99,323,3,5,4,1,3,2,1,0,1,4,6,1,453,0,12,0,465
161,32,326,6,2,6,1,2,0,1,2,2,0,0,3,383,0,4,0,387
162,259,186,8,5,7,5,4,3,5,0,1,6,5,2,496,0,21,0,517
163,58,140,3,2,1,0,2,0,2,0,2,3,3,3,219,0,9,0,228
164,131,380,7,0,2,1,1,2,1,2,4,1,3,0,535,0,7,0,542
165,197,240,4,4,1,1,1,3,0,0,2,2,3,3,461,0,7,0,468
166,131,199,2,6,2,1,0,1,1,0,2,0,0,0,345,0,4,0,349
167,78,127,8,2,2,2,0,1,1,1,0,1,0,4,227,0,2,0,229
168,244,126,2,4,3,0,2,0,2,0,0,1,2,3,389,0,8,0,397
169,158,382,10,4,6,0,3,1,0,1,2,1,3,6,577,0,22,0,599
170,57,384,7,1,7,3,2,0,0,0,2,3,3,3,472,0,19,0,491
171,60,467,4,2,23,0,5,1,3,1,1,3,2,2,574,0,17,0,591
172,94,306,8,8,6,1,9,1,0,2,2,2,3,7,449,0,11,0,460
173,43,428,2,5,19,2,1,0,1,1,0,1,1,1,505,0,6,0,511
174,96,444,7,14,12,0,5,3,3,2,0,3,4,3,596,0,9,0,605
175,360,126,9,12,12,2,4,7,3,2,2,4,3,5,551,0,25,0,576
176,197,303,19,4,1,2,2,3,1,0,2,6,5,4,549,0,17,0,566
177,156,139,8,3,2,0,1,1,0,0,2,1,1,1,315,0,8,0,323
178,125,172,3,4,3,3,0,0,0,1,1,2,1,2,317,0,6,0,323
179,114,410,11,3,5,1,3,3,1,2,1,1,4,3,562,0,17,0,579
180,61,281,2,5,2,3,1,0,0,0,0,0,2,6,363,0,9,0,372
181,135,232,8,1,3,1,1,3,0,3,0,1,1,1,390,0,9,0,399
182,153,416,15,6,7,2,3,1,0,0,1,1,2,1,608,0,7,0,615
183,116,204,2,2,0,1,0,2,1,0,2,0,1,0,331,0,2,0,333
184,102,141,1,2,0,2,1,0,0,0,0,1,0,0,250,0,1,0,251
185,130,226,31,3,3,0,1,0,3,0,2,2,3,2,406,0,12,0,418
186,144,243,7,3,1,0,0,2,0,1,4,2,0,6,413,0,12,0,425
187,37,495,8,1,2,1,0,0,1,1,1,0,0,1,548,0,2,0,550
188,58,482,12,8,12,0,1,1,2,0,2,2,3,5,588,0,8,0,596
189,81,95,1,2,3,0,1,0,0,1,0,0,0,3,187,0,7,0,194
190,100,194,6,6,11,1,1,1,1,0,1,1,1,1,325,0,9,0,334
191,22,299,0,0,3,1,2,1,1,0,1,2,0,0,332,0,6,0,338
192,15,554,1,3,6,1,0,0,0,0,2,0,0,5,587,0,2,0,589
193,88,231,8,2,6,0,2,0,0,0,1,0,0,2,340,0,2,0,342
194,95,217,11,6,3,0,1,1,3,2,2,3,5,3,352,0,11,0,363
195,174,234,3,3,2,0,2,3,0,0,0,1,1,2,425,0,8,0,433
196,247,203,6,1,3,3,1,1,0,0,0,1,1,0,467,0,4,0,471
197,45,242,2,0,2,0,0,0,0,0,2,1,1,1,296,0,6,0,302
198,57,376,3,3,2,0,1,1,0,0,1,1,1,0,446,0,3,0,449
199,214,323,18,1,1,1,0,5,1,3,1,1,0,3,572,0,11,0,583
200,115,311,11,3,33,2,1,0,2,1,2,2,1,1,485,0,2,0,487
201,101,103,4,1,3,0,1,1,1,0,1,0,3,0,219,0,5,0,224
202,209,248,10,1,2,0,1,2,2,1,0,2,1,4,483,0,11,0,494
203,80,238,5,4,1,0,2,0,1,0,0,0,1,1,333,0,5,0,338
204,67,282,3,3,5,1,1,2,0,0,1,2,1,3,371,0,6,0,377
205,96,322,5,6,2,1,1,0,2,0,1,0,2,6,444,0,10,0,454
206,132,340,12,2,4,2,1,0,0,1,0,0,0,3,497,0,10,0,507
207,72,177,2,3,8,1,0,0,0,0,1,0,0,1,265,0,4,0,269
208,38,354,6,0,6,0,0,1,0,0,0,0,0,4,409,0,7,0,416
209,147,354,4,1,2,0,1,2,2,1,0,2,1,2,519,0,9,0,528
210,74,274,1,2,9,0,1,0,0,0,0,1,1,2,365,0,2,0,367
211,92,342,14,2,1,1,1,1,0,1,2,3,1,3,464,0,6,0,470
212,16,239,1,0,0,1,2,0,0,0,1,0,0,0,260,0,3,0,263
213,47,204,2,1,2,0,0,0,0,0,0,0,0,0,256,0,4,0,260
214,69,277,7,3,8,2,0,2,0,0,1,2,0,1,372,0,4,0,376
215,104,504,7,1,5,0,1,0,1,1,1,2,1,4,632,0,8,0,640
216,140,271,2,2,6,1,2,3,1,0,1,1,2,0,432,0,13,0,445
217,46,204,1,2,2,0,1,2,0,0,2,1,1,1,263,0,8,0,271
218,61,258,1,1,1,1,0,0,1,1,1,1,2,3,332,0,2,0,334
219,105,468,9,6,3,3,1,0,1,0,3,3,7,4,613,0,10,0,623
220,83,491,6,5,4,1,0,2,0,0,0,2,1,1,596,0,11,0,607
221,57,273,0,3,4,0,2,2,1,0,0,0,1,3,346,0,1,0,347
222,118,135,1,1,3,1,1,0,0,0,1,0,1,6,268,0,12,0,280
223,58,99,2,3,1,0,1,0,0,0,1,0,1,0,166,0,4,0,170
224,95,165,2,3,2,1,1,1,5,0,0,1,1,2,279,0,4,0,283
225,192,347,6,4,3,3,0,3,0,1,3,3,1,5,571,0,12,0,583
226,53,515,3,1,0,0,0,1,2,0,5,1,1,3,585,0,2,0,587
227,56,272,8,2,6,0,2,0,2,0,1,1,3,3,356,0,4,0,360
228,98,272,15,4,5,0,3,1,0,0,2,1,3,1,405,0,9,0,414
229,155,354,8,1,9,1,1,6,2,2,5,1,1,7,553,0,15,0,568
230,91,210,2,0,2,0,0,0,0,0,0,1,0,0,306,0,7,0,313
231,254,144,10,1,8,1,1,1,2,0,0,6,4,2,434,0,11,0,445
232,203,264,4,0,3,2,0,1,1,0,0,2,2,1,483,0,9,0,492
233,144,235,1,4,1,0,5,0,0,0,1,3,0,1,395,0,6,0,401
234,148,248,1,4,3,3,0,1,0,0,0,2,1,3,414,0,5,0,419
235,61,365,0,2,2,1,2,0,1,0,1,2,0,0,437,0,9,0,446
236,66,495,3,2,0,1,1,1,2,0,0,1,2,2,576,0,12,0,588
237,48,509,4,0,4,2,0,2,0,0,0,0,0,0,569,0,7,0,576
238,288,67,6,1,8,0,0,1,0,0,3,2,6,2,384,0,16,0,400
239,170,113,8,3,0,1,3,1,1,0,1,1,4,2,308,0,12,0,320
240,74,435,0,1,3,0,0,1,0,0,1,1,1,1,518,0,2,0,520
241,51,269,2,0,12,0,1,0,0,0,0,0,0,1,336,0,2,0,338
242,97,164,4,0,0,0,1,0,1,1,0,3,3,1,275,0,2,0,277
243,227,84,1,3,3,0,0,1,0,0,0,0,1,0,320,0,12,0,332
244,81,409,7,4,1,1,0,1,0,0,1,2,2,1,510,0,10,0,520
245,116,357,8,4,1,1,1,0,2,1,3,1,3,3,501,0,5,0,506
246,142,346,7,5,3,2,1,1,2,2,0,3,1,1,516,0,8,0,524
247,77,228,1,1,0,2,0,0,2,0,1,2,2,9,325,0,5,0,330
248,112,311,7,1,2,0,2,1,0,0,3,1,2,3,445,0,6,0,451
249,125,125,2,3,5,1,4,1,2,0,0,2,3,1,274,0,2,0,276
250,51,162,3,1,0,0,1,0,1,1,2,2,2,0,226,0,5,0,231
251,16,248,8,3,1,0,0,0,0,0,1,2,0,4,283,0,2,0,285
252,91,125,11,11,1,2,1,3,0,0,0,1,0,3,249,0,6,0,255
253,100,145,2,2,1,2,1,3,0,1,1,1,2,1,262,0,7,0,269
254,44,337,5,0,0,0,1,3,0,0,0,1,2,1,394,0,4,0,398
255,119,156,2,5,3,1,1,0,1,1,1,1,4,2,297,0,6,0,303
256,179,109,9,6,4,1,1,1,2,0,3,1,1,5,322,0,8,0,330
257,110,384,5,3,12,0,1,1,0,0,1,0,4,4,525,0,9,0,534
258,53,179,2,2,3,3,0,1,0,0,3,3,0,2,251,0,1,0,252
259,74,192,5,3,1,2,2,1,2,0,1,0,2,1,286,0,2,0,288
260,33,229,7,3,4,1,1,1,0,2,5,0,4,4,294,0,6,0,300
261,204,219,4,7,1,3,1,1,0,2,0,1,2,4,449,0,12,0,461
262,89,225,2,1,4,2,0,0,1,1,3,2,0,1,331,0,10,0,341
263,35,247,2,1,0,0,2,2,1,0,1,1,1,3,296,0,5,0,301
264,49,372,5,1,3,0,1,0,1,0,1,0,3,1,437,0,5,0,442
265,81,99,3,1,0,1,1,0,0,0,1,1,1,1,190,0,4,0,194
266,115,185,3,2,4,5,0,0,0,0,1,0,0,2,317,0,9,0,326
267,251,222,3,0,0,1,2,1,0,1,0,0,1,3,485,0,5,0,490
268,51,119,3,1,2,3,2,2,1,2,0,0,3,1,190,0,2,0,192
269,42,159,0,4,0,1,2,1,0,0,2,0,1,4,216,0,4,0,220
